# Pulseq sequence file
# Created by PyPulseq

# Created for Pulseq-CEST
# https://pulseq-cest.github.io/
# Created by: ('Lukas Kamm', 'Jan-Ruediger Schuere')
# Created at: 20-Mar-2024 12:25:19

[VERSION]
major 1
minor 3
revision 1

[DEFINITIONS]
B0 3 
B1array [0.3] 
DCsat 0.5 
FREQ 127.7292 
M0_offset -300 
Trec 3.5 
Trec_M0 3.5 
Tsat 1.9 
n_pulses 10 
num_meas 62 
offsets_ppm -300 -100 -75 -50 -30 -20 -10 -6 -5.75 -5.5 -5.25 -5 -4.75 -4.5 -4.25 -4 -3.75 -3.5 -3.25 -3 -2.75 -2.5 -2.25 -2 -1.75 -1.5 -1.25 -1 -0.75 -0.5 -0.25 0 0.25 0.5 0.75 1 1.25 1.5 1.75 2 2.25 2.5 2.75 3 3.25 3.5 3.75 4 4.25 4.5 4.75 5 5.25 5.5 5.75 6 10 20 30 50 75 100 
seq_id_string SpinLock_Multi_B1_3T_B1_0p3_python 
spoiling 1 
td 0.1 
tp 0.1 

# Format of blocks:
#  #  D RF  GX  GY  GZ ADC EXT
[BLOCKS]
   1  1  0   0   0   0  0  0
   2  2  0   0   0   0  0  0
   3  0  1   0   0   0  0  0
   4  2  0   0   0   0  0  0
   5  3  0   0   0   0  0  0
   6  2  0   0   0   0  0  0
   7  0  1   0   0   0  0  0
   8  2  0   0   0   0  0  0
   9  3  0   0   0   0  0  0
  10  2  0   0   0   0  0  0
  11  0  1   0   0   0  0  0
  12  2  0   0   0   0  0  0
  13  3  0   0   0   0  0  0
  14  2  0   0   0   0  0  0
  15  0  1   0   0   0  0  0
  16  2  0   0   0   0  0  0
  17  3  0   0   0   0  0  0
  18  2  0   0   0   0  0  0
  19  0  1   0   0   0  0  0
  20  2  0   0   0   0  0  0
  21  3  0   0   0   0  0  0
  22  2  0   0   0   0  0  0
  23  0  1   0   0   0  0  0
  24  2  0   0   0   0  0  0
  25  3  0   0   0   0  0  0
  26  2  0   0   0   0  0  0
  27  0  1   0   0   0  0  0
  28  2  0   0   0   0  0  0
  29  3  0   0   0   0  0  0
  30  2  0   0   0   0  0  0
  31  0  1   0   0   0  0  0
  32  2  0   0   0   0  0  0
  33  3  0   0   0   0  0  0
  34  2  0   0   0   0  0  0
  35  0  1   0   0   0  0  0
  36  2  0   0   0   0  0  0
  37  3  0   0   0   0  0  0
  38  2  0   0   0   0  0  0
  39  0  1   0   0   0  0  0
  40  2  0   0   0   0  0  0
  41  0  0   1   1   1  0  0
  42  0  0   0   0   0  1  0
  43  1  0   0   0   0  0  0
  44  2  0   0   0   0  0  0
  45  0  2   0   0   0  0  0
  46  2  0   0   0   0  0  0
  47  3  0   0   0   0  0  0
  48  2  0   0   0   0  0  0
  49  0  2   0   0   0  0  0
  50  2  0   0   0   0  0  0
  51  3  0   0   0   0  0  0
  52  2  0   0   0   0  0  0
  53  0  2   0   0   0  0  0
  54  2  0   0   0   0  0  0
  55  3  0   0   0   0  0  0
  56  2  0   0   0   0  0  0
  57  0  2   0   0   0  0  0
  58  2  0   0   0   0  0  0
  59  3  0   0   0   0  0  0
  60  2  0   0   0   0  0  0
  61  0  2   0   0   0  0  0
  62  2  0   0   0   0  0  0
  63  3  0   0   0   0  0  0
  64  2  0   0   0   0  0  0
  65  0  2   0   0   0  0  0
  66  2  0   0   0   0  0  0
  67  3  0   0   0   0  0  0
  68  2  0   0   0   0  0  0
  69  0  2   0   0   0  0  0
  70  2  0   0   0   0  0  0
  71  3  0   0   0   0  0  0
  72  2  0   0   0   0  0  0
  73  0  2   0   0   0  0  0
  74  2  0   0   0   0  0  0
  75  3  0   0   0   0  0  0
  76  2  0   0   0   0  0  0
  77  0  2   0   0   0  0  0
  78  2  0   0   0   0  0  0
  79  3  0   0   0   0  0  0
  80  2  0   0   0   0  0  0
  81  0  2   0   0   0  0  0
  82  2  0   0   0   0  0  0
  83  0  0   1   1   1  0  0
  84  0  0   0   0   0  1  0
  85  1  0   0   0   0  0  0
  86  2  0   0   0   0  0  0
  87  0  3   0   0   0  0  0
  88  2  0   0   0   0  0  0
  89  3  0   0   0   0  0  0
  90  2  0   0   0   0  0  0
  91  0  3   0   0   0  0  0
  92  2  0   0   0   0  0  0
  93  3  0   0   0   0  0  0
  94  2  0   0   0   0  0  0
  95  0  3   0   0   0  0  0
  96  2  0   0   0   0  0  0
  97  3  0   0   0   0  0  0
  98  2  0   0   0   0  0  0
  99  0  3   0   0   0  0  0
 100  2  0   0   0   0  0  0
 101  3  0   0   0   0  0  0
 102  2  0   0   0   0  0  0
 103  0  3   0   0   0  0  0
 104  2  0   0   0   0  0  0
 105  3  0   0   0   0  0  0
 106  2  0   0   0   0  0  0
 107  0  3   0   0   0  0  0
 108  2  0   0   0   0  0  0
 109  3  0   0   0   0  0  0
 110  2  0   0   0   0  0  0
 111  0  3   0   0   0  0  0
 112  2  0   0   0   0  0  0
 113  3  0   0   0   0  0  0
 114  2  0   0   0   0  0  0
 115  0  3   0   0   0  0  0
 116  2  0   0   0   0  0  0
 117  3  0   0   0   0  0  0
 118  2  0   0   0   0  0  0
 119  0  3   0   0   0  0  0
 120  2  0   0   0   0  0  0
 121  3  0   0   0   0  0  0
 122  2  0   0   0   0  0  0
 123  0  3   0   0   0  0  0
 124  2  0   0   0   0  0  0
 125  0  0   1   1   1  0  0
 126  0  0   0   0   0  1  0
 127  1  0   0   0   0  0  0
 128  2  0   0   0   0  0  0
 129  0  4   0   0   0  0  0
 130  2  0   0   0   0  0  0
 131  3  0   0   0   0  0  0
 132  2  0   0   0   0  0  0
 133  0  4   0   0   0  0  0
 134  2  0   0   0   0  0  0
 135  3  0   0   0   0  0  0
 136  2  0   0   0   0  0  0
 137  0  4   0   0   0  0  0
 138  2  0   0   0   0  0  0
 139  3  0   0   0   0  0  0
 140  2  0   0   0   0  0  0
 141  0  4   0   0   0  0  0
 142  2  0   0   0   0  0  0
 143  3  0   0   0   0  0  0
 144  2  0   0   0   0  0  0
 145  0  4   0   0   0  0  0
 146  2  0   0   0   0  0  0
 147  3  0   0   0   0  0  0
 148  2  0   0   0   0  0  0
 149  0  4   0   0   0  0  0
 150  2  0   0   0   0  0  0
 151  3  0   0   0   0  0  0
 152  2  0   0   0   0  0  0
 153  0  4   0   0   0  0  0
 154  2  0   0   0   0  0  0
 155  3  0   0   0   0  0  0
 156  2  0   0   0   0  0  0
 157  0  4   0   0   0  0  0
 158  2  0   0   0   0  0  0
 159  3  0   0   0   0  0  0
 160  2  0   0   0   0  0  0
 161  0  4   0   0   0  0  0
 162  2  0   0   0   0  0  0
 163  3  0   0   0   0  0  0
 164  2  0   0   0   0  0  0
 165  0  4   0   0   0  0  0
 166  2  0   0   0   0  0  0
 167  0  0   1   1   1  0  0
 168  0  0   0   0   0  1  0
 169  1  0   0   0   0  0  0
 170  2  0   0   0   0  0  0
 171  0  5   0   0   0  0  0
 172  2  0   0   0   0  0  0
 173  3  0   0   0   0  0  0
 174  2  0   0   0   0  0  0
 175  0  5   0   0   0  0  0
 176  2  0   0   0   0  0  0
 177  3  0   0   0   0  0  0
 178  2  0   0   0   0  0  0
 179  0  5   0   0   0  0  0
 180  2  0   0   0   0  0  0
 181  3  0   0   0   0  0  0
 182  2  0   0   0   0  0  0
 183  0  5   0   0   0  0  0
 184  2  0   0   0   0  0  0
 185  3  0   0   0   0  0  0
 186  2  0   0   0   0  0  0
 187  0  5   0   0   0  0  0
 188  2  0   0   0   0  0  0
 189  3  0   0   0   0  0  0
 190  2  0   0   0   0  0  0
 191  0  5   0   0   0  0  0
 192  2  0   0   0   0  0  0
 193  3  0   0   0   0  0  0
 194  2  0   0   0   0  0  0
 195  0  5   0   0   0  0  0
 196  2  0   0   0   0  0  0
 197  3  0   0   0   0  0  0
 198  2  0   0   0   0  0  0
 199  0  5   0   0   0  0  0
 200  2  0   0   0   0  0  0
 201  3  0   0   0   0  0  0
 202  2  0   0   0   0  0  0
 203  0  5   0   0   0  0  0
 204  2  0   0   0   0  0  0
 205  3  0   0   0   0  0  0
 206  2  0   0   0   0  0  0
 207  0  5   0   0   0  0  0
 208  2  0   0   0   0  0  0
 209  0  0   1   1   1  0  0
 210  0  0   0   0   0  1  0
 211  1  0   0   0   0  0  0
 212  2  0   0   0   0  0  0
 213  0  6   0   0   0  0  0
 214  2  0   0   0   0  0  0
 215  3  0   0   0   0  0  0
 216  2  0   0   0   0  0  0
 217  0  6   0   0   0  0  0
 218  2  0   0   0   0  0  0
 219  3  0   0   0   0  0  0
 220  2  0   0   0   0  0  0
 221  0  6   0   0   0  0  0
 222  2  0   0   0   0  0  0
 223  3  0   0   0   0  0  0
 224  2  0   0   0   0  0  0
 225  0  6   0   0   0  0  0
 226  2  0   0   0   0  0  0
 227  3  0   0   0   0  0  0
 228  2  0   0   0   0  0  0
 229  0  6   0   0   0  0  0
 230  2  0   0   0   0  0  0
 231  3  0   0   0   0  0  0
 232  2  0   0   0   0  0  0
 233  0  6   0   0   0  0  0
 234  2  0   0   0   0  0  0
 235  3  0   0   0   0  0  0
 236  2  0   0   0   0  0  0
 237  0  6   0   0   0  0  0
 238  2  0   0   0   0  0  0
 239  3  0   0   0   0  0  0
 240  2  0   0   0   0  0  0
 241  0  6   0   0   0  0  0
 242  2  0   0   0   0  0  0
 243  3  0   0   0   0  0  0
 244  2  0   0   0   0  0  0
 245  0  6   0   0   0  0  0
 246  2  0   0   0   0  0  0
 247  3  0   0   0   0  0  0
 248  2  0   0   0   0  0  0
 249  0  6   0   0   0  0  0
 250  2  0   0   0   0  0  0
 251  0  0   1   1   1  0  0
 252  0  0   0   0   0  1  0
 253  1  0   0   0   0  0  0
 254  0  7   0   0   0  0  0
 255  4  0   0   0   0  0  0
 256  0  8   0   0   0  0  0
 257  4  0   0   0   0  0  0
 258  0  9   0   0   0  0  0
 259  3  0   0   0   0  0  0
 260  0  7   0   0   0  0  0
 261  4  0   0   0   0  0  0
 262  0  8   0   0   0  0  0
 263  4  0   0   0   0  0  0
 264  0  9   0   0   0  0  0
 265  3  0   0   0   0  0  0
 266  0  7   0   0   0  0  0
 267  4  0   0   0   0  0  0
 268  0  8   0   0   0  0  0
 269  4  0   0   0   0  0  0
 270  0  9   0   0   0  0  0
 271  3  0   0   0   0  0  0
 272  0  7   0   0   0  0  0
 273  4  0   0   0   0  0  0
 274  0  8   0   0   0  0  0
 275  4  0   0   0   0  0  0
 276  0  9   0   0   0  0  0
 277  3  0   0   0   0  0  0
 278  0  7   0   0   0  0  0
 279  4  0   0   0   0  0  0
 280  0  8   0   0   0  0  0
 281  4  0   0   0   0  0  0
 282  0  9   0   0   0  0  0
 283  3  0   0   0   0  0  0
 284  0  7   0   0   0  0  0
 285  4  0   0   0   0  0  0
 286  0  8   0   0   0  0  0
 287  4  0   0   0   0  0  0
 288  0  9   0   0   0  0  0
 289  3  0   0   0   0  0  0
 290  0  7   0   0   0  0  0
 291  4  0   0   0   0  0  0
 292  0  8   0   0   0  0  0
 293  4  0   0   0   0  0  0
 294  0  9   0   0   0  0  0
 295  3  0   0   0   0  0  0
 296  0  7   0   0   0  0  0
 297  4  0   0   0   0  0  0
 298  0  8   0   0   0  0  0
 299  4  0   0   0   0  0  0
 300  0  9   0   0   0  0  0
 301  3  0   0   0   0  0  0
 302  0  7   0   0   0  0  0
 303  4  0   0   0   0  0  0
 304  0  8   0   0   0  0  0
 305  4  0   0   0   0  0  0
 306  0  9   0   0   0  0  0
 307  3  0   0   0   0  0  0
 308  0  7   0   0   0  0  0
 309  4  0   0   0   0  0  0
 310  0  8   0   0   0  0  0
 311  4  0   0   0   0  0  0
 312  0  9   0   0   0  0  0
 313  0  0   1   1   1  0  0
 314  0  0   0   0   0  1  0
 315  1  0   0   0   0  0  0
 316  0 10   0   0   0  0  0
 317  4  0   0   0   0  0  0
[RF]
1      12.7729 1 2 0 -38318.8 0
2      12.7729 1 2 0 -12772.9 0
3      12.7729 1 2 0 -9579.69 0
4      12.7729 1 2 0 -6386.46 0
5      12.7729 1 2 0 -3831.88 0
6      12.7729 1 2 0 -2554.58 0
7       1.5915 3 4 0 0 -1.5708
8      12.7729 1 2 0 -1277.29 0
9       1.5915 3 4 0 0 -800.975
10      2.65234 3 4 0 0 -1.5708
11      12.7729 1 2 0 -766.375 0
12      2.65234 3 4 0 0 -479.957
13      2.76763 3 4 0 0 -1.5708
14      12.7729 1 2 0 -734.443 0
15      2.76763 3 4 0 0 -459.893
16      2.89341 3 4 0 0 -1.5708
17      12.7729 1 2 0 -702.511 0
18      2.89341 3 4 0 0 -439.83
19      3.03116 3 4 0 0 -1.5708
20      12.7729 1 2 0 -670.578 0
21      3.03116 3 4 0 0 -419.766
22      3.18267 3 4 0 0 -1.5708
23      12.7729 1 2 0 -638.646 0
24      3.18267 3 4 0 0 -399.702
25      3.35014 3 4 0 0 -1.5708
26      12.7729 1 2 0 -606.714 0
27      3.35014 3 4 0 0 -379.639
28      3.53619 3 4 0 0 -1.5708
29      12.7729 1 2 0 -574.781 0
30      3.53619 3 4 0 0 -359.575
31      3.74413 3 4 0 0 -1.5708
32      12.7729 1 2 0 -542.849 0
33      3.74413 3 4 0 0 -339.511
34      3.97804 3 4 0 0 -1.5708
35      12.7729 1 2 0 -510.917 0
36      3.97804 3 4 0 0 -319.448
37      4.24313 3 4 0 0 -1.5708
38      12.7729 1 2 0 -478.984 0
39      4.24313 3 4 0 0 -299.384
40      4.54605 3 4 0 0 -1.5708
41      12.7729 1 2 0 -447.052 0
42      4.54605 3 4 0 0 -279.32
43      4.89553 3 4 0 0 -1.5708
44      12.7729 1 2 0 -415.12 0
45      4.89553 3 4 0 0 -259.257
46       5.3032 3 4 0 0 -1.5708
47      12.7729 1 2 0 -383.188 0
48       5.3032 3 4 0 0 -239.193
49       5.7849 3 4 0 0 -1.5708
50      12.7729 1 2 0 -351.255 0
51       5.7849 3 4 0 0 -219.129
52      6.36281 3 4 0 0 -1.5708
53      12.7729 1 2 0 -319.323 0
54      6.36281 3 4 0 0 -199.066
55       7.0689 3 4 0 0 -1.5708
56      12.7729 1 2 0 -287.391 0
57       7.0689 3 4 0 0 -179.002
58      7.95113 3 4 0 0 -1.5708
59      12.7729 1 2 0 -255.458 0
60      7.95113 3 4 0 0 -158.938
61      9.08469 3 4 0 0 -1.5708
62      12.7729 1 2 0 -223.526 0
63      9.08469 3 4 0 0 -138.875
64      10.5947 3 4 0 0 -1.5708
65      12.7729 1 2 0 -191.594 0
66      10.5947 3 4 0 0 -118.811
67      12.7053 3 4 0 0 -1.5708
68      12.7729 1 2 0 -159.661 0
69      12.7053 3 4 0 0 -98.7475
70      15.8628 3 4 0 0 -1.5708
71      12.7729 1 2 0 -127.729 0
72      15.8628 3 4 0 0 -78.6838
73      21.0962 3 4 0 0 -1.5708
74      12.7729 1 2 0 -95.7969 0
75      21.0962 3 4 0 0 -58.6202
76      31.4165 3 4 0 0 -1.5708
77      12.7729 1 2 0 -63.8646 0
78      31.4165 3 4 0 0 -38.5565
79      60.5595 3 4 0 0 -1.5708
80      12.7729 1 2 0 -31.9323 0
81      60.5595 3 4 0 0 -18.4929
82          250 3 5 0 0 -1.5708
83      12.7729 1 2 0 0 0
84          250 3 5 0 0 1.5708
85      60.5595 3 5 0 0 -1.5708
86      12.7729 1 2 0 31.9323 0
87      60.5595 3 5 0 0 21.6345
88      31.4165 3 5 0 0 -1.5708
89      12.7729 1 2 0 63.8646 0
90      31.4165 3 5 0 0 41.6981
91      21.0962 3 5 0 0 -1.5708
92      12.7729 1 2 0 95.7969 0
93      21.0962 3 5 0 0 61.7618
94      15.8628 3 5 0 0 -1.5708
95      12.7729 1 2 0 127.729 0
96      15.8628 3 5 0 0 81.8254
97      12.7053 3 5 0 0 -1.5708
98      12.7729 1 2 0 159.661 0
99      12.7053 3 5 0 0 101.889
100      10.5947 3 5 0 0 -1.5708
101      12.7729 1 2 0 191.594 0
102      10.5947 3 5 0 0 121.953
103      9.08469 3 5 0 0 -1.5708
104      12.7729 1 2 0 223.526 0
105      9.08469 3 5 0 0 142.016
106      7.95113 3 5 0 0 -1.5708
107      12.7729 1 2 0 255.458 0
108      7.95113 3 5 0 0 162.08
109       7.0689 3 5 0 0 -1.5708
110      12.7729 1 2 0 287.391 0
111       7.0689 3 5 0 0 182.144
112      6.36281 3 5 0 0 -1.5708
113      12.7729 1 2 0 319.323 0
114      6.36281 3 5 0 0 202.207
115       5.7849 3 5 0 0 -1.5708
116      12.7729 1 2 0 351.255 0
117       5.7849 3 5 0 0 222.271
118       5.3032 3 5 0 0 -1.5708
119      12.7729 1 2 0 383.188 0
120       5.3032 3 5 0 0 242.335
121      4.89553 3 5 0 0 -1.5708
122      12.7729 1 2 0 415.12 0
123      4.89553 3 5 0 0 262.398
124      4.54605 3 5 0 0 -1.5708
125      12.7729 1 2 0 447.052 0
126      4.54605 3 5 0 0 282.462
127      4.24313 3 5 0 0 -1.5708
128      12.7729 1 2 0 478.984 0
129      4.24313 3 5 0 0 302.526
130      3.97804 3 5 0 0 -1.5708
131      12.7729 1 2 0 510.917 0
132      3.97804 3 5 0 0 322.589
133      3.74413 3 5 0 0 -1.5708
134      12.7729 1 2 0 542.849 0
135      3.74413 3 5 0 0 342.653
136      3.53619 3 5 0 0 -1.5708
137      12.7729 1 2 0 574.781 0
138      3.53619 3 5 0 0 362.717
139      3.35014 3 5 0 0 -1.5708
140      12.7729 1 2 0 606.714 0
141      3.35014 3 5 0 0 382.78
142      3.18267 3 5 0 0 -1.5708
143      12.7729 1 2 0 638.646 0
144      3.18267 3 5 0 0 402.844
145      3.03116 3 5 0 0 -1.5708
146      12.7729 1 2 0 670.578 0
147      3.03116 3 5 0 0 422.908
148      2.89341 3 5 0 0 -1.5708
149      12.7729 1 2 0 702.511 0
150      2.89341 3 5 0 0 442.971
151      2.76763 3 5 0 0 -1.5708
152      12.7729 1 2 0 734.443 0
153      2.76763 3 5 0 0 463.035
154      2.65234 3 5 0 0 -1.5708
155      12.7729 1 2 0 766.375 0
156      2.65234 3 5 0 0 483.099
157       1.5915 3 5 0 0 -1.5708
158      12.7729 1 2 0 1277.29 0
159       1.5915 3 5 0 0 804.117
160      12.7729 1 2 0 2554.58 0
161      12.7729 1 2 0 3831.88 0
162      12.7729 1 2 0 6386.46 0
163      12.7729 1 2 0 9579.69 0
164      12.7729 1 2 0 12772.9 0

# Format of trapezoid gradients:
# id amplitude rise flat fall delay
# ..      Hz/m   us   us   us    us
[TRAP]
 1  1.36244e+06 1000 4500 1000   0

# Format of ADC events:
# id num dwell delay freq phase
# ..  ..    ns    us   Hz   rad
[ADC]
1 1 1000000 0 0 0

# Format of delays:
# id delay (us)
[DELAYS]
1 3500000
2 1250
3 97500
4 250

# Sequence Shapes
[SHAPES]

shape_id 1
num_samples 100000
1
0
0
99997

shape_id 2
num_samples 100000
0
0
99998

shape_id 3
num_samples 1000
1
0
0
997

shape_id 4
num_samples 1000
0.5
0
0
997

shape_id 5
num_samples 1000
0
0
998

