# Pulseq sequence file
# Created by PyPulseq

# Created for Pulseq-CEST
# https://pulseq-cest.github.io/
# Created by: ('Jan-Ruediger Schuere')
# Created at: 20-Mar-2024 12:28:57

[VERSION]
major 1
minor 3
revision 1

[DEFINITIONS]
B0 3 
B1array [4] 
DCsat 0.5 
FREQ 127.7292 
M0_offset -300 
Trec 3.5 
Trec_M0 3.5 
Tsat 1.9 
n_pulses 10 
num_meas 38 
offsets_ppm -300 -100 -75 -50 -30 -20 -10 -6 -5.5 -5 -4.5 -4 -3.5 -3 -2.5 -2 -1.5 -1 -0.5 0 0.5 1 1.5 2 2.5 3 3.5 4 4.5 5 5.5 6 10 20 30 50 75 100 
seq_id_string SpinLock_Multi_B1_3T_B1_4_python 
spoiling 1 
td 0.1 
tp 0.1 

# Format of blocks:
#  #  D RF  GX  GY  GZ ADC EXT
[BLOCKS]
   1  1  0   0   0   0  0  0
   2  2  0   0   0   0  0  0
   3  0  1   0   0   0  0  0
   4  2  0   0   0   0  0  0
   5  3  0   0   0   0  0  0
   6  2  0   0   0   0  0  0
   7  0  1   0   0   0  0  0
   8  2  0   0   0   0  0  0
   9  3  0   0   0   0  0  0
  10  2  0   0   0   0  0  0
  11  0  1   0   0   0  0  0
  12  2  0   0   0   0  0  0
  13  3  0   0   0   0  0  0
  14  2  0   0   0   0  0  0
  15  0  1   0   0   0  0  0
  16  2  0   0   0   0  0  0
  17  3  0   0   0   0  0  0
  18  2  0   0   0   0  0  0
  19  0  1   0   0   0  0  0
  20  2  0   0   0   0  0  0
  21  3  0   0   0   0  0  0
  22  2  0   0   0   0  0  0
  23  0  1   0   0   0  0  0
  24  2  0   0   0   0  0  0
  25  3  0   0   0   0  0  0
  26  2  0   0   0   0  0  0
  27  0  1   0   0   0  0  0
  28  2  0   0   0   0  0  0
  29  3  0   0   0   0  0  0
  30  2  0   0   0   0  0  0
  31  0  1   0   0   0  0  0
  32  2  0   0   0   0  0  0
  33  3  0   0   0   0  0  0
  34  2  0   0   0   0  0  0
  35  0  1   0   0   0  0  0
  36  2  0   0   0   0  0  0
  37  3  0   0   0   0  0  0
  38  2  0   0   0   0  0  0
  39  0  1   0   0   0  0  0
  40  2  0   0   0   0  0  0
  41  0  0   1   1   1  0  0
  42  0  0   0   0   0  1  0
  43  1  0   0   0   0  0  0
  44  0  2   0   0   0  0  0
  45  4  0   0   0   0  0  0
  46  0  3   0   0   0  0  0
  47  4  0   0   0   0  0  0
  48  0  4   0   0   0  0  0
  49  3  0   0   0   0  0  0
  50  0  2   0   0   0  0  0
  51  4  0   0   0   0  0  0
  52  0  3   0   0   0  0  0
  53  4  0   0   0   0  0  0
  54  0  4   0   0   0  0  0
  55  3  0   0   0   0  0  0
  56  0  2   0   0   0  0  0
  57  4  0   0   0   0  0  0
  58  0  3   0   0   0  0  0
  59  4  0   0   0   0  0  0
  60  0  4   0   0   0  0  0
  61  3  0   0   0   0  0  0
  62  0  2   0   0   0  0  0
  63  4  0   0   0   0  0  0
  64  0  3   0   0   0  0  0
  65  4  0   0   0   0  0  0
  66  0  4   0   0   0  0  0
  67  3  0   0   0   0  0  0
  68  0  2   0   0   0  0  0
  69  4  0   0   0   0  0  0
  70  0  3   0   0   0  0  0
  71  4  0   0   0   0  0  0
  72  0  4   0   0   0  0  0
  73  3  0   0   0   0  0  0
  74  0  2   0   0   0  0  0
  75  4  0   0   0   0  0  0
  76  0  3   0   0   0  0  0
  77  4  0   0   0   0  0  0
  78  0  4   0   0   0  0  0
  79  3  0   0   0   0  0  0
  80  0  2   0   0   0  0  0
  81  4  0   0   0   0  0  0
  82  0  3   0   0   0  0  0
  83  4  0   0   0   0  0  0
  84  0  4   0   0   0  0  0
  85  3  0   0   0   0  0  0
  86  0  2   0   0   0  0  0
  87  4  0   0   0   0  0  0
  88  0  3   0   0   0  0  0
  89  4  0   0   0   0  0  0
  90  0  4   0   0   0  0  0
  91  3  0   0   0   0  0  0
  92  0  2   0   0   0  0  0
  93  4  0   0   0   0  0  0
  94  0  3   0   0   0  0  0
  95  4  0   0   0   0  0  0
  96  0  4   0   0   0  0  0
  97  3  0   0   0   0  0  0
  98  0  2   0   0   0  0  0
  99  4  0   0   0   0  0  0
 100  0  3   0   0   0  0  0
 101  4  0   0   0   0  0  0
 102  0  4   0   0   0  0  0
 103  0  0   1   1   1  0  0
 104  0  0   0   0   0  1  0
 105  1  0   0   0   0  0  0
 106  0  5   0   0   0  0  0
 107  4  0   0   0   0  0  0
 108  0  6   0   0   0  0  0
 109  4  0   0   0   0  0  0
 110  0  7   0   0   0  0  0
 111  3  0   0   0   0  0  0
 112  0  5   0   0   0  0  0
 113  4  0   0   0   0  0  0
 114  0  6   0   0   0  0  0
 115  4  0   0   0   0  0  0
 116  0  7   0   0   0  0  0
 117  3  0   0   0   0  0  0
 118  0  5   0   0   0  0  0
 119  4  0   0   0   0  0  0
 120  0  6   0   0   0  0  0
 121  4  0   0   0   0  0  0
 122  0  7   0   0   0  0  0
 123  3  0   0   0   0  0  0
 124  0  5   0   0   0  0  0
 125  4  0   0   0   0  0  0
 126  0  6   0   0   0  0  0
 127  4  0   0   0   0  0  0
 128  0  7   0   0   0  0  0
 129  3  0   0   0   0  0  0
 130  0  5   0   0   0  0  0
 131  4  0   0   0   0  0  0
 132  0  6   0   0   0  0  0
 133  4  0   0   0   0  0  0
 134  0  7   0   0   0  0  0
 135  3  0   0   0   0  0  0
 136  0  5   0   0   0  0  0
 137  4  0   0   0   0  0  0
 138  0  6   0   0   0  0  0
 139  4  0   0   0   0  0  0
 140  0  7   0   0   0  0  0
 141  3  0   0   0   0  0  0
 142  0  5   0   0   0  0  0
 143  4  0   0   0   0  0  0
 144  0  6   0   0   0  0  0
 145  4  0   0   0   0  0  0
 146  0  7   0   0   0  0  0
 147  3  0   0   0   0  0  0
 148  0  5   0   0   0  0  0
 149  4  0   0   0   0  0  0
 150  0  6   0   0   0  0  0
 151  4  0   0   0   0  0  0
 152  0  7   0   0   0  0  0
 153  3  0   0   0   0  0  0
 154  0  5   0   0   0  0  0
 155  4  0   0   0   0  0  0
 156  0  6   0   0   0  0  0
 157  4  0   0   0   0  0  0
 158  0  7   0   0   0  0  0
 159  3  0   0   0   0  0  0
 160  0  5   0   0   0  0  0
 161  4  0   0   0   0  0  0
 162  0  6   0   0   0  0  0
 163  4  0   0   0   0  0  0
 164  0  7   0   0   0  0  0
 165  0  0   1   1   1  0  0
 166  0  0   0   0   0  1  0
 167  1  0   0   0   0  0  0
 168  0  8   0   0   0  0  0
 169  4  0   0   0   0  0  0
 170  0  9   0   0   0  0  0
 171  4  0   0   0   0  0  0
 172  0 10   0   0   0  0  0
 173  3  0   0   0   0  0  0
 174  0  8   0   0   0  0  0
 175  4  0   0   0   0  0  0
 176  0  9   0   0   0  0  0
 177  4  0   0   0   0  0  0
 178  0 10   0   0   0  0  0
 179  3  0   0   0   0  0  0
 180  0  8   0   0   0  0  0
 181  4  0   0   0   0  0  0
 182  0  9   0   0   0  0  0
 183  4  0   0   0   0  0  0
 184  0 10   0   0   0  0  0
 185  3  0   0   0   0  0  0
 186  0  8   0   0   0  0  0
 187  4  0   0   0   0  0  0
 188  0  9   0   0   0  0  0
 189  4  0   0   0   0  0  0
 190  0 10   0   0   0  0  0
 191  3  0   0   0   0  0  0
 192  0  8   0   0   0  0  0
 193  4  0   0   0   0  0  0
 194  0  9   0   0   0  0  0
 195  4  0   0   0   0  0  0
 196  0 10   0   0   0  0  0
 197  3  0   0   0   0  0  0
 198  0  8   0   0   0  0  0
 199  4  0   0   0   0  0  0
 200  0  9   0   0   0  0  0
 201  4  0   0   0   0  0  0
 202  0 10   0   0   0  0  0
 203  3  0   0   0   0  0  0
 204  0  8   0   0   0  0  0
 205  4  0   0   0   0  0  0
 206  0  9   0   0   0  0  0
 207  4  0   0   0   0  0  0
 208  0 10   0   0   0  0  0
 209  3  0   0   0   0  0  0
 210  0  8   0   0   0  0  0
 211  4  0   0   0   0  0  0
 212  0  9   0   0   0  0  0
 213  4  0   0   0   0  0  0
 214  0 10   0   0   0  0  0
 215  3  0   0   0   0  0  0
 216  0  8   0   0   0  0  0
 217  4  0   0   0   0  0  0
 218  0  9   0   0   0  0  0
 219  4  0   0   0   0  0  0
 220  0 10   0   0   0  0  0
 221  3  0   0   0   0  0  0
 222  0  8   0   0   0  0  0
 223  4  0   0   0   0  0  0
 224  0  9   0   0   0  0  0
 225  4  0   0   0   0  0  0
 226  0 10   0   0   0  0  0
 227  0  0   1   1   1  0  0
 228  0  0   0   0   0  1  0
 229  1  0   0   0   0  0  0
 230  0 11   0   0   0  0  0
 231  4  0   0   0   0  0  0
 232  0 12   0   0   0  0  0
 233  4  0   0   0   0  0  0
 234  0 13   0   0   0  0  0
 235  3  0   0   0   0  0  0
 236  0 11   0   0   0  0  0
 237  4  0   0   0   0  0  0
 238  0 12   0   0   0  0  0
 239  4  0   0   0   0  0  0
 240  0 13   0   0   0  0  0
 241  3  0   0   0   0  0  0
 242  0 11   0   0   0  0  0
 243  4  0   0   0   0  0  0
 244  0 12   0   0   0  0  0
 245  4  0   0   0   0  0  0
 246  0 13   0   0   0  0  0
 247  3  0   0   0   0  0  0
 248  0 11   0   0   0  0  0
 249  4  0   0   0   0  0  0
 250  0 12   0   0   0  0  0
 251  4  0   0   0   0  0  0
 252  0 13   0   0   0  0  0
 253  3  0   0   0   0  0  0
 254  0 11   0   0   0  0  0
 255  4  0   0   0   0  0  0
 256  0 12   0   0   0  0  0
 257  4  0   0   0   0  0  0
 258  0 13   0   0   0  0  0
 259  3  0   0   0   0  0  0
 260  0 11   0   0   0  0  0
 261  4  0   0   0   0  0  0
 262  0 12   0   0   0  0  0
 263  4  0   0   0   0  0  0
 264  0 13   0   0   0  0  0
 265  3  0   0   0   0  0  0
 266  0 11   0   0   0  0  0
 267  4  0   0   0   0  0  0
 268  0 12   0   0   0  0  0
 269  4  0   0   0   0  0  0
 270  0 13   0   0   0  0  0
 271  3  0   0   0   0  0  0
 272  0 11   0   0   0  0  0
 273  4  0   0   0   0  0  0
 274  0 12   0   0   0  0  0
 275  4  0   0   0   0  0  0
 276  0 13   0   0   0  0  0
 277  3  0   0   0   0  0  0
 278  0 11   0   0   0  0  0
 279  4  0   0   0   0  0  0
 280  0 12   0   0   0  0  0
 281  4  0   0   0   0  0  0
 282  0 13   0   0   0  0  0
 283  3  0   0   0   0  0  0
 284  0 11   0   0   0  0  0
 285  4  0   0   0   0  0  0
 286  0 12   0   0   0  0  0
 287  4  0   0   0   0  0  0
 288  0 13   0   0   0  0  0
 289  0  0   1   1   1  0  0
 290  0  0   0   0   0  1  0
 291  1  0   0   0   0  0  0
 292  0 14   0   0   0  0  0
 293  4  0   0   0   0  0  0
 294  0 15   0   0   0  0  0
 295  4  0   0   0   0  0  0
 296  0 16   0   0   0  0  0
 297  3  0   0   0   0  0  0
 298  0 14   0   0   0  0  0
 299  4  0   0   0   0  0  0
 300  0 15   0   0   0  0  0
 301  4  0   0   0   0  0  0
 302  0 16   0   0   0  0  0
 303  3  0   0   0   0  0  0
 304  0 14   0   0   0  0  0
 305  4  0   0   0   0  0  0
 306  0 15   0   0   0  0  0
 307  4  0   0   0   0  0  0
 308  0 16   0   0   0  0  0
 309  3  0   0   0   0  0  0
 310  0 14   0   0   0  0  0
 311  4  0   0   0   0  0  0
 312  0 15   0   0   0  0  0
 313  4  0   0   0   0  0  0
 314  0 16   0   0   0  0  0
 315  3  0   0   0   0  0  0
 316  0 14   0   0   0  0  0
 317  4  0   0   0   0  0  0
 318  0 15   0   0   0  0  0
 319  4  0   0   0   0  0  0
 320  0 16   0   0   0  0  0
 321  3  0   0   0   0  0  0
 322  0 14   0   0   0  0  0
[RF]
1      170.306 1 2 0 -38318.8 0
2      2.12194 3 4 0 0 -1.5708
3      170.306 1 2 0 -12772.9 0
4      2.12194 3 4 0 0 -8023.89
5      2.82912 3 4 0 0 -1.5708
6      170.306 1 2 0 -9579.69 0
7      2.82912 3 4 0 0 -6017.53
8      4.24313 3 4 0 0 -1.5708
9      170.306 1 2 0 -6386.46 0
10      4.24313 3 4 0 0 -4011.16
11       7.0689 3 4 0 0 -1.5708
12      170.306 1 2 0 -3831.88 0
13       7.0689 3 4 0 0 -2406.07
14      10.5947 3 4 0 0 -1.5708
15      170.306 1 2 0 -2554.58 0
16      10.5947 3 4 0 0 -1603.52
17      21.0962 3 4 0 0 -1.5708
18      170.306 1 2 0 -1277.29 0
19      21.0962 3 4 0 0 -800.975
20      34.8022 3 4 0 0 -1.5708
21      170.306 1 2 0 -766.375 0
22      34.8022 3 4 0 0 -479.957
23      37.8528 3 4 0 0 -1.5708
24      170.306 1 2 0 -702.511 0
25      37.8528 3 4 0 0 -439.83
26      41.4762 3 4 0 0 -1.5708
27      170.306 1 2 0 -638.646 0
28      41.4762 3 4 0 0 -399.702
29      45.8454 3 4 0 0 -1.5708
30      170.306 1 2 0 -574.781 0
31      45.8454 3 4 0 0 -359.575
32      51.2082 3 4 0 0 -1.5708
33      170.306 1 2 0 -510.917 0
34      51.2082 3 4 0 0 -319.448
35      57.9291 3 4 0 0 -1.5708
36      170.306 1 2 0 -447.052 0
37      57.9291 3 4 0 0 -279.32
38      66.5625 3 4 0 0 -1.5708
39      170.306 1 2 0 -383.188 0
40      66.5625 3 4 0 0 -239.193
41      77.9791 3 4 0 0 -1.5708
42      170.306 1 2 0 -319.323 0
43      77.9791 3 4 0 0 -199.066
44      93.5835 3 4 0 0 -1.5708
45      170.306 1 2 0 -255.458 0
46      93.5835 3 4 0 0 -158.938
47      115.649 3 4 0 0 -1.5708
48      170.306 1 2 0 -191.594 0
49      115.649 3 4 0 0 -118.811
50      147.584 3 4 0 0 -1.5708
51      170.306 1 2 0 -127.729 0
52      147.584 3 4 0 0 -78.6838
53        192.9 3 4 0 0 -1.5708
54      170.306 1 2 0 -63.8646 0
55        192.9 3 4 0 0 -38.5565
56          250 3 5 0 0 -1.5708
57      170.306 1 2 0 0 0
58          250 3 5 0 0 1.5708
59        192.9 3 5 0 0 -1.5708
60      170.306 1 2 0 63.8646 0
61        192.9 3 5 0 0 41.6981
62      147.584 3 5 0 0 -1.5708
63      170.306 1 2 0 127.729 0
64      147.584 3 5 0 0 81.8254
65      115.649 3 5 0 0 -1.5708
66      170.306 1 2 0 191.594 0
67      115.649 3 5 0 0 121.953
68      93.5835 3 5 0 0 -1.5708
69      170.306 1 2 0 255.458 0
70      93.5835 3 5 0 0 162.08
71      77.9791 3 5 0 0 -1.5708
72      170.306 1 2 0 319.323 0
73      77.9791 3 5 0 0 202.207
74      66.5625 3 5 0 0 -1.5708
75      170.306 1 2 0 383.188 0
76      66.5625 3 5 0 0 242.335
77      57.9291 3 5 0 0 -1.5708
78      170.306 1 2 0 447.052 0
79      57.9291 3 5 0 0 282.462
80      51.2082 3 5 0 0 -1.5708
81      170.306 1 2 0 510.917 0
82      51.2082 3 5 0 0 322.589
83      45.8454 3 5 0 0 -1.5708
84      170.306 1 2 0 574.781 0
85      45.8454 3 5 0 0 362.717
86      41.4762 3 5 0 0 -1.5708
87      170.306 1 2 0 638.646 0
88      41.4762 3 5 0 0 402.844
89      37.8528 3 5 0 0 -1.5708
90      170.306 1 2 0 702.511 0
91      37.8528 3 5 0 0 442.971
92      34.8022 3 5 0 0 -1.5708
93      170.306 1 2 0 766.375 0
94      34.8022 3 5 0 0 483.099
95      21.0962 3 5 0 0 -1.5708
96      170.306 1 2 0 1277.29 0
97      21.0962 3 5 0 0 804.117
98      10.5947 3 5 0 0 -1.5708
99      170.306 1 2 0 2554.58 0
100      10.5947 3 5 0 0 1606.66
101       7.0689 3 5 0 0 -1.5708
102      170.306 1 2 0 3831.88 0
103       7.0689 3 5 0 0 2409.21
104      4.24313 3 5 0 0 -1.5708
105      170.306 1 2 0 6386.46 0
106      4.24313 3 5 0 0 4014.3
107      2.82912 3 5 0 0 -1.5708
108      170.306 1 2 0 9579.69 0
109      2.82912 3 5 0 0 6020.67
110      2.12194 3 5 0 0 -1.5708
111      170.306 1 2 0 12772.9 0
112      2.12194 3 5 0 0 8027.03

# Format of trapezoid gradients:
# id amplitude rise flat fall delay
# ..      Hz/m   us   us   us    us
[TRAP]
 1  1.36244e+06 1000 4500 1000   0

# Format of ADC events:
# id num dwell delay freq phase
# ..  ..    ns    us   Hz   rad
[ADC]
1 1 1000000 0 0 0

# Format of delays:
# id delay (us)
[DELAYS]
1 3500000
2 1250
3 97500
4 250

# Sequence Shapes
[SHAPES]

shape_id 1
num_samples 100000
1
0
0
99997

shape_id 2
num_samples 100000
0
0
99998

shape_id 3
num_samples 1000
1
0
0
997

shape_id 4
num_samples 1000
0.5
0
0
997

shape_id 5
num_samples 1000
0
0
998

