# Pulseq sequence file
# Created by PyPulseq

# Created for Pulseq-CEST
# https://pulseq-cest.github.io/
# Created by: ('Jan-Ruediger Schuere')
# Created at: 02-Apr-2024 11:26:52

[VERSION]
major 1
minor 3
revision 1

[DEFINITIONS]
B0 7 
B1array 2 
DCsat 0.5 
FREQ 298.0348 
M0_offset -300 
Trec 3.5 
Trec_M0 3.5 
Tsat 1.9 
n_pulses 10 
num_meas 62 
offsets_ppm -300 -100 -75 -50 -30 -20 -10 -6 -5.75 -5.5 -5.25 -5 -4.75 -4.5 -4.25 -4 -3.75 -3.5 -3.25 -3 -2.75 -2.5 -2.25 -2 -1.75 -1.5 -1.25 -1 -0.75 -0.5 -0.25 0 0.25 0.5 0.75 1 1.25 1.5 1.75 2 2.25 2.5 2.75 3 3.25 3.5 3.75 4 4.25 4.5 4.75 5 5.25 5.5 5.75 6 10 20 30 50 75 100 
seq_id_string SpinLock_Multi_7T 
spoiling 1 
td 0.1 
tp 0.1 

# Format of blocks:
#  #  D RF  GX  GY  GZ ADC EXT
[BLOCKS]
   1  1  0   0   0   0  0  0
   2  0  1   0   0   0  0  0
   3  2  0   0   0   0  0  0
   4  0  2   0   0   0  0  0
   5  2  0   0   0   0  0  0
   6  0  3   0   0   0  0  0
   7  3  0   0   0   0  0  0
   8  0  1   0   0   0  0  0
   9  2  0   0   0   0  0  0
  10  0  2   0   0   0  0  0
  11  2  0   0   0   0  0  0
  12  0  3   0   0   0  0  0
  13  3  0   0   0   0  0  0
  14  0  1   0   0   0  0  0
  15  2  0   0   0   0  0  0
  16  0  2   0   0   0  0  0
  17  2  0   0   0   0  0  0
  18  0  3   0   0   0  0  0
  19  3  0   0   0   0  0  0
  20  0  1   0   0   0  0  0
  21  2  0   0   0   0  0  0
  22  0  2   0   0   0  0  0
  23  2  0   0   0   0  0  0
  24  0  3   0   0   0  0  0
  25  3  0   0   0   0  0  0
  26  0  1   0   0   0  0  0
  27  2  0   0   0   0  0  0
  28  0  2   0   0   0  0  0
  29  2  0   0   0   0  0  0
  30  0  3   0   0   0  0  0
  31  3  0   0   0   0  0  0
  32  0  1   0   0   0  0  0
  33  2  0   0   0   0  0  0
  34  0  2   0   0   0  0  0
  35  2  0   0   0   0  0  0
  36  0  3   0   0   0  0  0
  37  3  0   0   0   0  0  0
  38  0  1   0   0   0  0  0
  39  2  0   0   0   0  0  0
  40  0  2   0   0   0  0  0
  41  2  0   0   0   0  0  0
  42  0  3   0   0   0  0  0
  43  3  0   0   0   0  0  0
  44  0  1   0   0   0  0  0
  45  2  0   0   0   0  0  0
  46  0  2   0   0   0  0  0
  47  2  0   0   0   0  0  0
  48  0  3   0   0   0  0  0
  49  3  0   0   0   0  0  0
  50  0  1   0   0   0  0  0
  51  2  0   0   0   0  0  0
  52  0  2   0   0   0  0  0
  53  2  0   0   0   0  0  0
  54  0  3   0   0   0  0  0
  55  3  0   0   0   0  0  0
  56  0  1   0   0   0  0  0
  57  2  0   0   0   0  0  0
  58  0  2   0   0   0  0  0
  59  2  0   0   0   0  0  0
  60  0  3   0   0   0  0  0
  61  0  0   1   1   1  0  0
  62  0  0   0   0   0  1  0
  63  1  0   0   0   0  0  0
  64  0  4   0   0   0  0  0
  65  2  0   0   0   0  0  0
  66  0  5   0   0   0  0  0
  67  2  0   0   0   0  0  0
  68  0  6   0   0   0  0  0
  69  3  0   0   0   0  0  0
  70  0  4   0   0   0  0  0
  71  2  0   0   0   0  0  0
  72  0  5   0   0   0  0  0
  73  2  0   0   0   0  0  0
  74  0  6   0   0   0  0  0
  75  3  0   0   0   0  0  0
  76  0  4   0   0   0  0  0
  77  2  0   0   0   0  0  0
  78  0  5   0   0   0  0  0
  79  2  0   0   0   0  0  0
  80  0  6   0   0   0  0  0
  81  3  0   0   0   0  0  0
  82  0  4   0   0   0  0  0
  83  2  0   0   0   0  0  0
  84  0  5   0   0   0  0  0
  85  2  0   0   0   0  0  0
  86  0  6   0   0   0  0  0
  87  3  0   0   0   0  0  0
  88  0  4   0   0   0  0  0
  89  2  0   0   0   0  0  0
  90  0  5   0   0   0  0  0
  91  2  0   0   0   0  0  0
  92  0  6   0   0   0  0  0
  93  3  0   0   0   0  0  0
  94  0  4   0   0   0  0  0
  95  2  0   0   0   0  0  0
  96  0  5   0   0   0  0  0
  97  2  0   0   0   0  0  0
  98  0  6   0   0   0  0  0
  99  3  0   0   0   0  0  0
 100  0  4   0   0   0  0  0
 101  2  0   0   0   0  0  0
 102  0  5   0   0   0  0  0
 103  2  0   0   0   0  0  0
 104  0  6   0   0   0  0  0
 105  3  0   0   0   0  0  0
 106  0  4   0   0   0  0  0
 107  2  0   0   0   0  0  0
 108  0  5   0   0   0  0  0
 109  2  0   0   0   0  0  0
 110  0  6   0   0   0  0  0
 111  3  0   0   0   0  0  0
 112  0  4   0   0   0  0  0
 113  2  0   0   0   0  0  0
 114  0  5   0   0   0  0  0
 115  2  0   0   0   0  0  0
 116  0  6   0   0   0  0  0
 117  3  0   0   0   0  0  0
 118  0  4   0   0   0  0  0
 119  2  0   0   0   0  0  0
 120  0  5   0   0   0  0  0
 121  2  0   0   0   0  0  0
 122  0  6   0   0   0  0  0
 123  0  0   1   1   1  0  0
 124  0  0   0   0   0  1  0
 125  1  0   0   0   0  0  0
 126  0  7   0   0   0  0  0
 127  2  0   0   0   0  0  0
 128  0  8   0   0   0  0  0
 129  2  0   0   0   0  0  0
 130  0  9   0   0   0  0  0
 131  3  0   0   0   0  0  0
 132  0  7   0   0   0  0  0
 133  2  0   0   0   0  0  0
 134  0  8   0   0   0  0  0
 135  2  0   0   0   0  0  0
 136  0  9   0   0   0  0  0
 137  3  0   0   0   0  0  0
 138  0  7   0   0   0  0  0
 139  2  0   0   0   0  0  0
 140  0  8   0   0   0  0  0
 141  2  0   0   0   0  0  0
 142  0  9   0   0   0  0  0
 143  3  0   0   0   0  0  0
 144  0  7   0   0   0  0  0
 145  2  0   0   0   0  0  0
 146  0  8   0   0   0  0  0
 147  2  0   0   0   0  0  0
 148  0  9   0   0   0  0  0
 149  3  0   0   0   0  0  0
 150  0  7   0   0   0  0  0
 151  2  0   0   0   0  0  0
 152  0  8   0   0   0  0  0
 153  2  0   0   0   0  0  0
 154  0  9   0   0   0  0  0
 155  3  0   0   0   0  0  0
 156  0  7   0   0   0  0  0
 157  2  0   0   0   0  0  0
 158  0  8   0   0   0  0  0
 159  2  0   0   0   0  0  0
 160  0  9   0   0   0  0  0
 161  3  0   0   0   0  0  0
 162  0  7   0   0   0  0  0
 163  2  0   0   0   0  0  0
 164  0  8   0   0   0  0  0
 165  2  0   0   0   0  0  0
 166  0  9   0   0   0  0  0
 167  3  0   0   0   0  0  0
 168  0  7   0   0   0  0  0
 169  2  0   0   0   0  0  0
 170  0  8   0   0   0  0  0
 171  2  0   0   0   0  0  0
 172  0  9   0   0   0  0  0
 173  3  0   0   0   0  0  0
 174  0  7   0   0   0  0  0
 175  2  0   0   0   0  0  0
 176  0  8   0   0   0  0  0
 177  2  0   0   0   0  0  0
 178  0  9   0   0   0  0  0
 179  3  0   0   0   0  0  0
 180  0  7   0   0   0  0  0
 181  2  0   0   0   0  0  0
 182  0  8   0   0   0  0  0
 183  2  0   0   0   0  0  0
 184  0  9   0   0   0  0  0
 185  0  0   1   1   1  0  0
 186  0  0   0   0   0  1  0
 187  1  0   0   0   0  0  0
 188  0 10   0   0   0  0  0
 189  2  0   0   0   0  0  0
 190  0 11   0   0   0  0  0
 191  2  0   0   0   0  0  0
 192  0 12   0   0   0  0  0
 193  3  0   0   0   0  0  0
 194  0 10   0   0   0  0  0
 195  2  0   0   0   0  0  0
 196  0 11   0   0   0  0  0
 197  2  0   0   0   0  0  0
 198  0 12   0   0   0  0  0
 199  3  0   0   0   0  0  0
 200  0 10   0   0   0  0  0
 201  2  0   0   0   0  0  0
 202  0 11   0   0   0  0  0
 203  2  0   0   0   0  0  0
 204  0 12   0   0   0  0  0
 205  3  0   0   0   0  0  0
 206  0 10   0   0   0  0  0
 207  2  0   0   0   0  0  0
 208  0 11   0   0   0  0  0
 209  2  0   0   0   0  0  0
 210  0 12   0   0   0  0  0
 211  3  0   0   0   0  0  0
 212  0 10   0   0   0  0  0
 213  2  0   0   0   0  0  0
 214  0 11   0   0   0  0  0
 215  2  0   0   0   0  0  0
 216  0 12   0   0   0  0  0
 217  3  0   0   0   0  0  0
 218  0 10   0   0   0  0  0
 219  2  0   0   0   0  0  0
 220  0 11   0   0   0  0  0
 221  2  0   0   0   0  0  0
 222  0 12   0   0   0  0  0
 223  3  0   0   0   0  0  0
 224  0 10   0   0   0  0  0
 225  2  0   0   0   0  0  0
 226  0 11   0   0   0  0  0
 227  2  0   0   0   0  0  0
 228  0 12   0   0   0  0  0
 229  3  0   0   0   0  0  0
 230  0 10   0   0   0  0  0
 231  2  0   0   0   0  0  0
 232  0 11   0   0   0  0  0
 233  2  0   0   0   0  0  0
 234  0 12   0   0   0  0  0
 235  3  0   0   0   0  0  0
 236  0 10   0   0   0  0  0
 237  2  0   0   0   0  0  0
 238  0 11   0   0   0  0  0
 239  2  0   0   0   0  0  0
 240  0 12   0   0   0  0  0
 241  3  0   0   0   0  0  0
 242  0 10   0   0   0  0  0
 243  2  0   0   0   0  0  0
 244  0 11   0   0   0  0  0
 245  2  0   0   0   0  0  0
 246  0 12   0   0   0  0  0
 247  0  0   1   1   1  0  0
 248  0  0   0   0   0  1  0
 249  1  0   0   0   0  0  0
 250  0 13   0   0   0  0  0
 251  2  0   0   0   0  0  0
 252  0 14   0   0   0  0  0
 253  2  0   0   0   0  0  0
 254  0 15   0   0   0  0  0
 255  3  0   0   0   0  0  0
 256  0 13   0   0   0  0  0
 257  2  0   0   0   0  0  0
 258  0 14   0   0   0  0  0
 259  2  0   0   0   0  0  0
 260  0 15   0   0   0  0  0
 261  3  0   0   0   0  0  0
 262  0 13   0   0   0  0  0
 263  2  0   0   0   0  0  0
 264  0 14   0   0   0  0  0
 265  2  0   0   0   0  0  0
 266  0 15   0   0   0  0  0
 267  3  0   0   0   0  0  0
 268  0 13   0   0   0  0  0
 269  2  0   0   0   0  0  0
 270  0 14   0   0   0  0  0
 271  2  0   0   0   0  0  0
 272  0 15   0   0   0  0  0
 273  3  0   0   0   0  0  0
 274  0 13   0   0   0  0  0
 275  2  0   0   0   0  0  0
 276  0 14   0   0   0  0  0
 277  2  0   0   0   0  0  0
 278  0 15   0   0   0  0  0
 279  3  0   0   0   0  0  0
 280  0 13   0   0   0  0  0
 281  2  0   0   0   0  0  0
 282  0 14   0   0   0  0  0
 283  2  0   0   0   0  0  0
 284  0 15   0   0   0  0  0
 285  3  0   0   0   0  0  0
 286  0 13   0   0   0  0  0
 287  2  0   0   0   0  0  0
 288  0 14   0   0   0  0  0
 289  2  0   0   0   0  0  0
 290  0 15   0   0   0  0  0
 291  3  0   0   0   0  0  0
 292  0 13   0   0   0  0  0
 293  2  0   0   0   0  0  0
 294  0 14   0   0   0  0  0
 295  2  0   0   0   0  0  0
 296  0 15   0   0   0  0  0
 297  3  0   0   0   0  0  0
 298  0 13   0   0   0  0  0
 299  2  0   0   0   0  0  0
 300  0 14   0   0   0  0  0
 301  2  0   0   0   0  0  0
 302  0 15   0   0   0  0  0
 303  3  0   0   0   0  0  0
 304  0 13   0   0   0  0  0
 305  2  0   0   0   0  0  0
 306  0 14   0   0   0  0  0
 307  2  0   0   0   0  0  0
 308  0 15   0   0   0  0  0
 309  0  0   1   1   1  0  0
 310  0  0   0   0   0  1  0
 311  1  0   0   0   0  0  0
 312  0 16   0   0   0  0  0
 313  2  0   0   0   0  0  0
 314  0 17   0   0   0  0  0
 315  2  0   0   0   0  0  0
 316  0 18   0   0   0  0  0
 317  3  0   0   0   0  0  0
 318  0 16   0   0   0  0  0
[RF]
1     0.151576 1 2 100 0 -1.5708
2      85.1528 3 4 100 -89410.4 0
3     0.151576 1 2 100 0 -56176.7
4     0.454727 1 2 100 0 -1.5708
5      85.1528 3 4 100 -29803.5 0
6     0.454727 1 2 100 0 -18724.5
7     0.606302 1 2 100 0 -1.5708
8      85.1528 3 4 100 -22352.6 0
9     0.606302 1 2 100 0 -14043
10     0.909447 1 2 100 0 -1.5708
11      85.1528 3 4 100 -14901.7 0
12     0.909447 1 2 100 0 -9361.47
13      1.51572 1 2 100 0 -1.5708
14      85.1528 3 4 100 -8941.04 0
15      1.51572 1 2 100 0 -5616.25
16      2.27349 1 2 100 0 -1.5708
17      85.1528 3 4 100 -5960.7 0
18      2.27349 1 2 100 0 -3743.64
19      4.54605 1 2 100 0 -1.5708
20      85.1528 3 4 100 -2980.35 0
21      4.54605 1 2 100 0 -1871.04
22      7.57309 1 2 100 0 -1.5708
23      85.1528 3 4 100 -1788.21 0
24      7.57309 1 2 100 0 -1121.99
25      7.90182 1 2 100 0 -1.5708
26      85.1528 3 4 100 -1713.7 0
27      7.90182 1 2 100 0 -1075.18
28      8.26036 1 2 100 0 -1.5708
29      85.1528 3 4 100 -1639.19 0
30      8.26036 1 2 100 0 -1028.36
31      8.65296 1 2 100 0 -1.5708
32      85.1528 3 4 100 -1564.68 0
33      8.65296 1 2 100 0 -981.548
34      9.08469 1 2 100 0 -1.5708
35      85.1528 3 4 100 -1490.17 0
36      9.08469 1 2 100 0 -934.733
37      9.56171 1 2 100 0 -1.5708
38      85.1528 3 4 100 -1415.67 0
39      9.56171 1 2 100 0 -887.918
40      10.0915 1 2 100 0 -1.5708
41      85.1528 3 4 100 -1341.16 0
42      10.0915 1 2 100 0 -841.103
43      10.6834 1 2 100 0 -1.5708
44      85.1528 3 4 100 -1266.65 0
45      10.6834 1 2 100 0 -794.288
46      11.3489 1 2 100 0 -1.5708
47      85.1528 3 4 100 -1192.14 0
48      11.3489 1 2 100 0 -747.472
49      12.1027 1 2 100 0 -1.5708
50      85.1528 3 4 100 -1117.63 0
51      12.1027 1 2 100 0 -700.657
52      12.9635 1 2 100 0 -1.5708
53      85.1528 3 4 100 -1043.12 0
54      12.9635 1 2 100 0 -653.842
55      13.9558 1 2 100 0 -1.5708
56      85.1528 3 4 100 -968.613 0
57      13.9558 1 2 100 0 -607.027
58       15.112 1 2 100 0 -1.5708
59      85.1528 3 4 100 -894.104 0
60       15.112 1 2 100 0 -560.212
61      16.4765 1 2 100 0 -1.5708
62      85.1528 3 4 100 -819.596 0
63      16.4765 1 2 100 0 -513.396
64      18.1106 1 2 100 0 -1.5708
65      85.1528 3 4 100 -745.087 0
66      18.1106 1 2 100 0 -466.581
67      20.1026 1 2 100 0 -1.5708
68      85.1528 3 4 100 -670.578 0
69      20.1026 1 2 100 0 -419.766
70      22.5836 1 2 100 0 -1.5708
71      85.1528 3 4 100 -596.07 0
72      22.5836 1 2 100 0 -372.951
73      25.7572 1 2 100 0 -1.5708
74      85.1528 3 4 100 -521.561 0
75      25.7572 1 2 100 0 -326.136
76      29.9564 1 2 100 0 -1.5708
77      85.1528 3 4 100 -447.052 0
78      29.9564 1 2 100 0 -279.32
79      35.7639 1 2 100 0 -1.5708
80      85.1528 3 4 100 -372.543 0
81      35.7639 1 2 100 0 -232.505
82      44.2928 1 2 100 0 -1.5708
83      85.1528 3 4 100 -298.035 0
84      44.2928 1 2 100 0 -185.69
85      57.9291 1 2 100 0 -1.5708
86      85.1528 3 4 100 -223.526 0
87      57.9291 1 2 100 0 -138.875
88      82.6247 1 2 100 0 -1.5708
89      85.1528 3 4 100 -149.017 0
90      82.6247 1 2 100 0 -92.0596
91      135.595 1 2 100 0 -1.5708
92      85.1528 3 4 100 -74.5087 0
93      135.595 1 2 100 0 -45.2444
94          250 1 5 100 0 -1.5708
95      85.1528 3 4 100 0 0
96          250 1 5 100 0 1.5708
97      135.595 1 5 100 0 -1.5708
98      85.1528 3 4 100 74.5087 0
99      135.595 1 5 100 0 48.386
100      82.6247 1 5 100 0 -1.5708
101      85.1528 3 4 100 149.017 0
102      82.6247 1 5 100 0 95.2012
103      57.9291 1 5 100 0 -1.5708
104      85.1528 3 4 100 223.526 0
105      57.9291 1 5 100 0 142.016
106      44.2928 1 5 100 0 -1.5708
107      85.1528 3 4 100 298.035 0
108      44.2928 1 5 100 0 188.832
109      35.7639 1 5 100 0 -1.5708
110      85.1528 3 4 100 372.543 0
111      35.7639 1 5 100 0 235.647
112      29.9564 1 5 100 0 -1.5708
113      85.1528 3 4 100 447.052 0
114      29.9564 1 5 100 0 282.462
115      25.7572 1 5 100 0 -1.5708
116      85.1528 3 4 100 521.561 0
117      25.7572 1 5 100 0 329.277
118      22.5836 1 5 100 0 -1.5708
119      85.1528 3 4 100 596.07 0
120      22.5836 1 5 100 0 376.092
121      20.1026 1 5 100 0 -1.5708
122      85.1528 3 4 100 670.578 0
123      20.1026 1 5 100 0 422.908
124      18.1106 1 5 100 0 -1.5708
125      85.1528 3 4 100 745.087 0
126      18.1106 1 5 100 0 469.723
127      16.4765 1 5 100 0 -1.5708
128      85.1528 3 4 100 819.596 0
129      16.4765 1 5 100 0 516.538
130       15.112 1 5 100 0 -1.5708
131      85.1528 3 4 100 894.104 0
132       15.112 1 5 100 0 563.353
133      13.9558 1 5 100 0 -1.5708
134      85.1528 3 4 100 968.613 0
135      13.9558 1 5 100 0 610.168
136      12.9635 1 5 100 0 -1.5708
137      85.1528 3 4 100 1043.12 0
138      12.9635 1 5 100 0 656.984
139      12.1027 1 5 100 0 -1.5708
140      85.1528 3 4 100 1117.63 0
141      12.1027 1 5 100 0 703.799
142      11.3489 1 5 100 0 -1.5708
143      85.1528 3 4 100 1192.14 0
144      11.3489 1 5 100 0 750.614
145      10.6834 1 5 100 0 -1.5708
146      85.1528 3 4 100 1266.65 0
147      10.6834 1 5 100 0 797.429
148      10.0915 1 5 100 0 -1.5708
149      85.1528 3 4 100 1341.16 0
150      10.0915 1 5 100 0 844.244
151      9.56171 1 5 100 0 -1.5708
152      85.1528 3 4 100 1415.67 0
153      9.56171 1 5 100 0 891.06
154      9.08469 1 5 100 0 -1.5708
155      85.1528 3 4 100 1490.17 0
156      9.08469 1 5 100 0 937.875
157      8.65296 1 5 100 0 -1.5708
158      85.1528 3 4 100 1564.68 0
159      8.65296 1 5 100 0 984.69
160      8.26036 1 5 100 0 -1.5708
161      85.1528 3 4 100 1639.19 0
162      8.26036 1 5 100 0 1031.51
163      7.90182 1 5 100 0 -1.5708
164      85.1528 3 4 100 1713.7 0
165      7.90182 1 5 100 0 1078.32
166      7.57309 1 5 100 0 -1.5708
167      85.1528 3 4 100 1788.21 0
168      7.57309 1 5 100 0 1125.14
169      4.54605 1 5 100 0 -1.5708
170      85.1528 3 4 100 2980.35 0
171      4.54605 1 5 100 0 1874.18
172      2.27349 1 5 100 0 -1.5708
173      85.1528 3 4 100 5960.7 0
174      2.27349 1 5 100 0 3746.79
175      1.51572 1 5 100 0 -1.5708
176      85.1528 3 4 100 8941.04 0
177      1.51572 1 5 100 0 5619.39
178     0.909447 1 5 100 0 -1.5708
179      85.1528 3 4 100 14901.7 0
180     0.909447 1 5 100 0 9364.61
181     0.606302 1 5 100 0 -1.5708
182      85.1528 3 4 100 22352.6 0
183     0.606302 1 5 100 0 14046.1
184     0.454727 1 5 100 0 -1.5708
185      85.1528 3 4 100 29803.5 0
186     0.454727 1 5 100 0 18727.6

# Format of trapezoid gradients:
# id amplitude rise flat fall delay
# ..      Hz/m   us   us   us    us
[TRAP]
 1  1.36244e+06 1000 4500 1000   0

# Format of ADC events:
# id num dwell delay freq phase
# ..  ..    ns    us   Hz   rad
[ADC]
1 1 1000000 0 0 0

# Format of delays:
# id delay (us)
[DELAYS]
1 3500000
2 250
3 97500

# Sequence Shapes
[SHAPES]

shape_id 1
num_samples 1030
1
0
0
997
-1
0
0
27

shape_id 2
num_samples 1030
0.5
0
0
997
-0.5
0
0
27

shape_id 3
num_samples 100030
1
0
0
99997
-1
0
0
27

shape_id 4
num_samples 100030
0
0
100028

shape_id 5
num_samples 1030
0
0
1028

