# Pulseq sequence file
# Created by PyPulseq

# Created for Pulseq-CEST
# https://pulseq-cest.github.io/
# Created by: ('Jan-Ruediger Schuere')
# Created at: 02-Apr-2024 11:27:35

[VERSION]
major 1
minor 3
revision 1

[DEFINITIONS]
B0 7 
B1array 4 
DCsat 0.5 
FREQ 298.0348 
M0_offset -300 
Trec 3.5 
Trec_M0 3.5 
Tsat 1.9 
n_pulses 10 
num_meas 38 
offsets_ppm -300 -100 -75 -50 -30 -20 -10 -6 -5.5 -5 -4.5 -4 -3.5 -3 -2.5 -2 -1.5 -1 -0.5 0 0.5 1 1.5 2 2.5 3 3.5 4 4.5 5 5.5 6 10 20 30 50 75 100 
seq_id_string SpinLock_Multi_7T 
spoiling 1 
td 0.1 
tp 0.1 

# Format of blocks:
#  #  D RF  GX  GY  GZ ADC EXT
[BLOCKS]
   1  1  0   0   0   0  0  0
   2  0  1   0   0   0  0  0
   3  2  0   0   0   0  0  0
   4  0  2   0   0   0  0  0
   5  2  0   0   0   0  0  0
   6  0  3   0   0   0  0  0
   7  3  0   0   0   0  0  0
   8  0  1   0   0   0  0  0
   9  2  0   0   0   0  0  0
  10  0  2   0   0   0  0  0
  11  2  0   0   0   0  0  0
  12  0  3   0   0   0  0  0
  13  3  0   0   0   0  0  0
  14  0  1   0   0   0  0  0
  15  2  0   0   0   0  0  0
  16  0  2   0   0   0  0  0
  17  2  0   0   0   0  0  0
  18  0  3   0   0   0  0  0
  19  3  0   0   0   0  0  0
  20  0  1   0   0   0  0  0
  21  2  0   0   0   0  0  0
  22  0  2   0   0   0  0  0
  23  2  0   0   0   0  0  0
  24  0  3   0   0   0  0  0
  25  3  0   0   0   0  0  0
  26  0  1   0   0   0  0  0
  27  2  0   0   0   0  0  0
  28  0  2   0   0   0  0  0
  29  2  0   0   0   0  0  0
  30  0  3   0   0   0  0  0
  31  3  0   0   0   0  0  0
  32  0  1   0   0   0  0  0
  33  2  0   0   0   0  0  0
  34  0  2   0   0   0  0  0
  35  2  0   0   0   0  0  0
  36  0  3   0   0   0  0  0
  37  3  0   0   0   0  0  0
  38  0  1   0   0   0  0  0
  39  2  0   0   0   0  0  0
  40  0  2   0   0   0  0  0
  41  2  0   0   0   0  0  0
  42  0  3   0   0   0  0  0
  43  3  0   0   0   0  0  0
  44  0  1   0   0   0  0  0
  45  2  0   0   0   0  0  0
  46  0  2   0   0   0  0  0
  47  2  0   0   0   0  0  0
  48  0  3   0   0   0  0  0
  49  3  0   0   0   0  0  0
  50  0  1   0   0   0  0  0
  51  2  0   0   0   0  0  0
  52  0  2   0   0   0  0  0
  53  2  0   0   0   0  0  0
  54  0  3   0   0   0  0  0
  55  3  0   0   0   0  0  0
  56  0  1   0   0   0  0  0
  57  2  0   0   0   0  0  0
  58  0  2   0   0   0  0  0
  59  2  0   0   0   0  0  0
  60  0  3   0   0   0  0  0
  61  0  0   1   1   1  0  0
  62  0  0   0   0   0  1  0
  63  1  0   0   0   0  0  0
  64  0  4   0   0   0  0  0
  65  2  0   0   0   0  0  0
  66  0  5   0   0   0  0  0
  67  2  0   0   0   0  0  0
  68  0  6   0   0   0  0  0
  69  3  0   0   0   0  0  0
  70  0  4   0   0   0  0  0
  71  2  0   0   0   0  0  0
  72  0  5   0   0   0  0  0
  73  2  0   0   0   0  0  0
  74  0  6   0   0   0  0  0
  75  3  0   0   0   0  0  0
  76  0  4   0   0   0  0  0
  77  2  0   0   0   0  0  0
  78  0  5   0   0   0  0  0
  79  2  0   0   0   0  0  0
  80  0  6   0   0   0  0  0
  81  3  0   0   0   0  0  0
  82  0  4   0   0   0  0  0
  83  2  0   0   0   0  0  0
  84  0  5   0   0   0  0  0
  85  2  0   0   0   0  0  0
  86  0  6   0   0   0  0  0
  87  3  0   0   0   0  0  0
  88  0  4   0   0   0  0  0
  89  2  0   0   0   0  0  0
  90  0  5   0   0   0  0  0
  91  2  0   0   0   0  0  0
  92  0  6   0   0   0  0  0
  93  3  0   0   0   0  0  0
  94  0  4   0   0   0  0  0
  95  2  0   0   0   0  0  0
  96  0  5   0   0   0  0  0
  97  2  0   0   0   0  0  0
  98  0  6   0   0   0  0  0
  99  3  0   0   0   0  0  0
 100  0  4   0   0   0  0  0
 101  2  0   0   0   0  0  0
 102  0  5   0   0   0  0  0
 103  2  0   0   0   0  0  0
 104  0  6   0   0   0  0  0
 105  3  0   0   0   0  0  0
 106  0  4   0   0   0  0  0
 107  2  0   0   0   0  0  0
 108  0  5   0   0   0  0  0
 109  2  0   0   0   0  0  0
 110  0  6   0   0   0  0  0
 111  3  0   0   0   0  0  0
 112  0  4   0   0   0  0  0
 113  2  0   0   0   0  0  0
 114  0  5   0   0   0  0  0
 115  2  0   0   0   0  0  0
 116  0  6   0   0   0  0  0
 117  3  0   0   0   0  0  0
 118  0  4   0   0   0  0  0
 119  2  0   0   0   0  0  0
 120  0  5   0   0   0  0  0
 121  2  0   0   0   0  0  0
 122  0  6   0   0   0  0  0
 123  0  0   1   1   1  0  0
 124  0  0   0   0   0  1  0
 125  1  0   0   0   0  0  0
 126  0  7   0   0   0  0  0
 127  2  0   0   0   0  0  0
 128  0  8   0   0   0  0  0
 129  2  0   0   0   0  0  0
 130  0  9   0   0   0  0  0
 131  3  0   0   0   0  0  0
 132  0  7   0   0   0  0  0
 133  2  0   0   0   0  0  0
 134  0  8   0   0   0  0  0
 135  2  0   0   0   0  0  0
 136  0  9   0   0   0  0  0
 137  3  0   0   0   0  0  0
 138  0  7   0   0   0  0  0
 139  2  0   0   0   0  0  0
 140  0  8   0   0   0  0  0
 141  2  0   0   0   0  0  0
 142  0  9   0   0   0  0  0
 143  3  0   0   0   0  0  0
 144  0  7   0   0   0  0  0
 145  2  0   0   0   0  0  0
 146  0  8   0   0   0  0  0
 147  2  0   0   0   0  0  0
 148  0  9   0   0   0  0  0
 149  3  0   0   0   0  0  0
 150  0  7   0   0   0  0  0
 151  2  0   0   0   0  0  0
 152  0  8   0   0   0  0  0
 153  2  0   0   0   0  0  0
 154  0  9   0   0   0  0  0
 155  3  0   0   0   0  0  0
 156  0  7   0   0   0  0  0
 157  2  0   0   0   0  0  0
 158  0  8   0   0   0  0  0
 159  2  0   0   0   0  0  0
 160  0  9   0   0   0  0  0
 161  3  0   0   0   0  0  0
 162  0  7   0   0   0  0  0
 163  2  0   0   0   0  0  0
 164  0  8   0   0   0  0  0
 165  2  0   0   0   0  0  0
 166  0  9   0   0   0  0  0
 167  3  0   0   0   0  0  0
 168  0  7   0   0   0  0  0
 169  2  0   0   0   0  0  0
 170  0  8   0   0   0  0  0
 171  2  0   0   0   0  0  0
 172  0  9   0   0   0  0  0
 173  3  0   0   0   0  0  0
 174  0  7   0   0   0  0  0
 175  2  0   0   0   0  0  0
 176  0  8   0   0   0  0  0
 177  2  0   0   0   0  0  0
 178  0  9   0   0   0  0  0
 179  3  0   0   0   0  0  0
 180  0  7   0   0   0  0  0
 181  2  0   0   0   0  0  0
 182  0  8   0   0   0  0  0
 183  2  0   0   0   0  0  0
 184  0  9   0   0   0  0  0
 185  0  0   1   1   1  0  0
 186  0  0   0   0   0  1  0
 187  1  0   0   0   0  0  0
 188  0 10   0   0   0  0  0
 189  2  0   0   0   0  0  0
 190  0 11   0   0   0  0  0
 191  2  0   0   0   0  0  0
 192  0 12   0   0   0  0  0
 193  3  0   0   0   0  0  0
 194  0 10   0   0   0  0  0
 195  2  0   0   0   0  0  0
 196  0 11   0   0   0  0  0
 197  2  0   0   0   0  0  0
 198  0 12   0   0   0  0  0
 199  3  0   0   0   0  0  0
 200  0 10   0   0   0  0  0
 201  2  0   0   0   0  0  0
 202  0 11   0   0   0  0  0
 203  2  0   0   0   0  0  0
 204  0 12   0   0   0  0  0
 205  3  0   0   0   0  0  0
 206  0 10   0   0   0  0  0
 207  2  0   0   0   0  0  0
 208  0 11   0   0   0  0  0
 209  2  0   0   0   0  0  0
 210  0 12   0   0   0  0  0
 211  3  0   0   0   0  0  0
 212  0 10   0   0   0  0  0
 213  2  0   0   0   0  0  0
 214  0 11   0   0   0  0  0
 215  2  0   0   0   0  0  0
 216  0 12   0   0   0  0  0
 217  3  0   0   0   0  0  0
 218  0 10   0   0   0  0  0
 219  2  0   0   0   0  0  0
 220  0 11   0   0   0  0  0
 221  2  0   0   0   0  0  0
 222  0 12   0   0   0  0  0
 223  3  0   0   0   0  0  0
 224  0 10   0   0   0  0  0
 225  2  0   0   0   0  0  0
 226  0 11   0   0   0  0  0
 227  2  0   0   0   0  0  0
 228  0 12   0   0   0  0  0
 229  3  0   0   0   0  0  0
 230  0 10   0   0   0  0  0
 231  2  0   0   0   0  0  0
 232  0 11   0   0   0  0  0
 233  2  0   0   0   0  0  0
 234  0 12   0   0   0  0  0
 235  3  0   0   0   0  0  0
 236  0 10   0   0   0  0  0
 237  2  0   0   0   0  0  0
 238  0 11   0   0   0  0  0
 239  2  0   0   0   0  0  0
 240  0 12   0   0   0  0  0
 241  3  0   0   0   0  0  0
 242  0 10   0   0   0  0  0
 243  2  0   0   0   0  0  0
 244  0 11   0   0   0  0  0
 245  2  0   0   0   0  0  0
 246  0 12   0   0   0  0  0
 247  0  0   1   1   1  0  0
 248  0  0   0   0   0  1  0
 249  1  0   0   0   0  0  0
 250  0 13   0   0   0  0  0
 251  2  0   0   0   0  0  0
 252  0 14   0   0   0  0  0
 253  2  0   0   0   0  0  0
 254  0 15   0   0   0  0  0
 255  3  0   0   0   0  0  0
 256  0 13   0   0   0  0  0
 257  2  0   0   0   0  0  0
 258  0 14   0   0   0  0  0
 259  2  0   0   0   0  0  0
 260  0 15   0   0   0  0  0
 261  3  0   0   0   0  0  0
 262  0 13   0   0   0  0  0
 263  2  0   0   0   0  0  0
 264  0 14   0   0   0  0  0
 265  2  0   0   0   0  0  0
 266  0 15   0   0   0  0  0
 267  3  0   0   0   0  0  0
 268  0 13   0   0   0  0  0
 269  2  0   0   0   0  0  0
 270  0 14   0   0   0  0  0
 271  2  0   0   0   0  0  0
 272  0 15   0   0   0  0  0
 273  3  0   0   0   0  0  0
 274  0 13   0   0   0  0  0
 275  2  0   0   0   0  0  0
 276  0 14   0   0   0  0  0
 277  2  0   0   0   0  0  0
 278  0 15   0   0   0  0  0
 279  3  0   0   0   0  0  0
 280  0 13   0   0   0  0  0
 281  2  0   0   0   0  0  0
 282  0 14   0   0   0  0  0
 283  2  0   0   0   0  0  0
 284  0 15   0   0   0  0  0
 285  3  0   0   0   0  0  0
 286  0 13   0   0   0  0  0
 287  2  0   0   0   0  0  0
 288  0 14   0   0   0  0  0
 289  2  0   0   0   0  0  0
 290  0 15   0   0   0  0  0
 291  3  0   0   0   0  0  0
 292  0 13   0   0   0  0  0
 293  2  0   0   0   0  0  0
 294  0 14   0   0   0  0  0
 295  2  0   0   0   0  0  0
 296  0 15   0   0   0  0  0
 297  3  0   0   0   0  0  0
 298  0 13   0   0   0  0  0
 299  2  0   0   0   0  0  0
 300  0 14   0   0   0  0  0
 301  2  0   0   0   0  0  0
 302  0 15   0   0   0  0  0
 303  3  0   0   0   0  0  0
 304  0 13   0   0   0  0  0
 305  2  0   0   0   0  0  0
 306  0 14   0   0   0  0  0
 307  2  0   0   0   0  0  0
 308  0 15   0   0   0  0  0
 309  0  0   1   1   1  0  0
 310  0  0   0   0   0  1  0
 311  1  0   0   0   0  0  0
 312  0 16   0   0   0  0  0
 313  2  0   0   0   0  0  0
 314  0 17   0   0   0  0  0
 315  2  0   0   0   0  0  0
 316  0 18   0   0   0  0  0
 317  3  0   0   0   0  0  0
 318  0 16   0   0   0  0  0
 319  2  0   0   0   0  0  0
 320  0 17   0   0   0  0  0
 321  2  0   0   0   0  0  0
 322  0 18   0   0   0  0  0
 323  3  0   0   0   0  0  0
[RF]
1     0.303152 1 2 100 0 -1.5708
2      170.306 3 4 100 -89410.4 0
3     0.303152 1 2 100 0 -56176.7
4     0.909447 1 2 100 0 -1.5708
5      170.306 3 4 100 -29803.5 0
6     0.909447 1 2 100 0 -18724.5
7      1.21259 1 2 100 0 -1.5708
8      170.306 3 4 100 -22352.6 0
9      1.21259 1 2 100 0 -14043
10      1.81883 1 2 100 0 -1.5708
11      170.306 3 4 100 -14901.7 0
12      1.81883 1 2 100 0 -9361.47
13      3.03116 1 2 100 0 -1.5708
14      170.306 3 4 100 -8941.04 0
15      3.03116 1 2 100 0 -5616.25
16      4.54605 1 2 100 0 -1.5708
17      170.306 3 4 100 -5960.7 0
18      4.54605 1 2 100 0 -3743.64
19      9.08469 1 2 100 0 -1.5708
20      170.306 3 4 100 -2980.35 0
21      9.08469 1 2 100 0 -1871.04
22       15.112 1 2 100 0 -1.5708
23      170.306 3 4 100 -1788.21 0
24       15.112 1 2 100 0 -1121.99
25      16.4765 1 2 100 0 -1.5708
26      170.306 3 4 100 -1639.19 0
27      16.4765 1 2 100 0 -1028.36
28      18.1106 1 2 100 0 -1.5708
29      170.306 3 4 100 -1490.17 0
30      18.1106 1 2 100 0 -934.733
31      20.1026 1 2 100 0 -1.5708
32      170.306 3 4 100 -1341.16 0
33      20.1026 1 2 100 0 -841.103
34      22.5836 1 2 100 0 -1.5708
35      170.306 3 4 100 -1192.14 0
36      22.5836 1 2 100 0 -747.472
37      25.7572 1 2 100 0 -1.5708
38      170.306 3 4 100 -1043.12 0
39      25.7572 1 2 100 0 -653.842
40      29.9564 1 2 100 0 -1.5708
41      170.306 3 4 100 -894.104 0
42      29.9564 1 2 100 0 -560.212
43      35.7639 1 2 100 0 -1.5708
44      170.306 3 4 100 -745.087 0
45      35.7639 1 2 100 0 -466.581
46      44.2928 1 2 100 0 -1.5708
47      170.306 3 4 100 -596.07 0
48      44.2928 1 2 100 0 -372.951
49      57.9291 1 2 100 0 -1.5708
50      170.306 3 4 100 -447.052 0
51      57.9291 1 2 100 0 -279.32
52      82.6247 1 2 100 0 -1.5708
53      170.306 3 4 100 -298.035 0
54      82.6247 1 2 100 0 -185.69
55      135.595 1 2 100 0 -1.5708
56      170.306 3 4 100 -149.017 0
57      135.595 1 2 100 0 -92.0596
58          250 1 5 100 0 -1.5708
59      170.306 3 4 100 0 0
60          250 1 5 100 0 1.5708
61      135.595 1 5 100 0 -1.5708
62      170.306 3 4 100 149.017 0
63      135.595 1 5 100 0 95.2012
64      82.6247 1 5 100 0 -1.5708
65      170.306 3 4 100 298.035 0
66      82.6247 1 5 100 0 188.832
67      57.9291 1 5 100 0 -1.5708
68      170.306 3 4 100 447.052 0
69      57.9291 1 5 100 0 282.462
70      44.2928 1 5 100 0 -1.5708
71      170.306 3 4 100 596.07 0
72      44.2928 1 5 100 0 376.092
73      35.7639 1 5 100 0 -1.5708
74      170.306 3 4 100 745.087 0
75      35.7639 1 5 100 0 469.723
76      29.9564 1 5 100 0 -1.5708
77      170.306 3 4 100 894.104 0
78      29.9564 1 5 100 0 563.353
79      25.7572 1 5 100 0 -1.5708
80      170.306 3 4 100 1043.12 0
81      25.7572 1 5 100 0 656.984
82      22.5836 1 5 100 0 -1.5708
83      170.306 3 4 100 1192.14 0
84      22.5836 1 5 100 0 750.614
85      20.1026 1 5 100 0 -1.5708
86      170.306 3 4 100 1341.16 0
87      20.1026 1 5 100 0 844.244
88      18.1106 1 5 100 0 -1.5708
89      170.306 3 4 100 1490.17 0
90      18.1106 1 5 100 0 937.875
91      16.4765 1 5 100 0 -1.5708
92      170.306 3 4 100 1639.19 0
93      16.4765 1 5 100 0 1031.51
94       15.112 1 5 100 0 -1.5708
95      170.306 3 4 100 1788.21 0
96       15.112 1 5 100 0 1125.14
97      9.08469 1 5 100 0 -1.5708
98      170.306 3 4 100 2980.35 0
99      9.08469 1 5 100 0 1874.18
100      4.54605 1 5 100 0 -1.5708
101      170.306 3 4 100 5960.7 0
102      4.54605 1 5 100 0 3746.79
103      3.03116 1 5 100 0 -1.5708
104      170.306 3 4 100 8941.04 0
105      3.03116 1 5 100 0 5619.39
106      1.81883 1 5 100 0 -1.5708
107      170.306 3 4 100 14901.7 0
108      1.81883 1 5 100 0 9364.61
109      1.21259 1 5 100 0 -1.5708
110      170.306 3 4 100 22352.6 0
111      1.21259 1 5 100 0 14046.1
112     0.909447 1 5 100 0 -1.5708
113      170.306 3 4 100 29803.5 0
114     0.909447 1 5 100 0 18727.6

# Format of trapezoid gradients:
# id amplitude rise flat fall delay
# ..      Hz/m   us   us   us    us
[TRAP]
 1  1.36244e+06 1000 4500 1000   0

# Format of ADC events:
# id num dwell delay freq phase
# ..  ..    ns    us   Hz   rad
[ADC]
1 1 1000000 0 0 0

# Format of delays:
# id delay (us)
[DELAYS]
1 3500000
2 250
3 97500

# Sequence Shapes
[SHAPES]

shape_id 1
num_samples 1030
1
0
0
997
-1
0
0
27

shape_id 2
num_samples 1030
0.5
0
0
997
-0.5
0
0
27

shape_id 3
num_samples 100030
1
0
0
99997
-1
0
0
27

shape_id 4
num_samples 100030
0
0
100028

shape_id 5
num_samples 1030
0
0
1028

